# PA[deg]	RM[rad/m^2]
163.3916	0.0237
159.0414	-0.7806
161.9382	-10.0833
159.7090	-0.0076
306.2187	-3.4536
160.3788	3.2836
159.2876	-9.6241
161.2754	-10.9395
158.8038	7.3691
157.3400	0.3644
158.6992	21.2937
159.3940	-25.5247
156.7464	9.0426
157.3389	1.6563
160.9448	-19.9334
159.0569	-1.6788
160.4820	5.9771
157.9982	-10.2393
159.1346	6.5310
159.3353	28.4494
158.4857	-12.9161
158.4559	-14.2733
156.1422	6.6560
158.2502	-9.5759
160.7148	-9.5313
159.3462	19.7822
155.8998	24.3632
159.3263	-19.2896
157.0947	-0.7850
157.6986	-3.6043
155.8631	2.8265
157.5839	9.1810
154.9339	16.6765
157.2596	22.3482
154.9306	17.4587
155.5187	1.1903
157.3822	-8.0841
154.7663	15.1446
158.9590	-11.9745
157.6879	7.3617
157.9407	1.5052
154.5197	24.0031
156.6084	7.6099
154.4115	-14.7173
310.0529	38.2206
157.8214	1.0587
157.7928	-16.8115
157.6229	-12.2596
155.9432	13.4626
157.5817	-0.4197
154.3653	6.6463
157.2738	-10.9665
153.3798	22.0609
156.2926	22.1687
154.7417	5.7499
311.7056	15.4025
153.5106	18.5147
155.0383	9.5272
156.0710	-1.7239
152.7557	33.7394
152.2267	23.1332
153.6189	9.2858
155.7082	23.8296
311.5804	11.1058
154.0835	-11.0366
152.3319	-8.7394
152.0077	17.9504
153.6214	22.9975
153.5882	19.4706
151.7692	26.4105
154.2277	251.3437
151.0478	-24.5476
151.6763	10.2908
151.1473	-16.4438
151.2027	21.1701
153.2081	12.6225
151.8824	1.4849
151.0054	0.4144
152.6094	4.0150
150.9174	19.2314
152.2344	17.0216
150.1639	-43.0350
150.9388	4.2956
150.4118	-3.6872
151.5287	-0.8951
149.9636	9.9974
150.5733	-41.3986
150.2602	16.7053
149.8229	-4.1202
150.7147	-13.1792
149.2754	-18.0370
150.2906	-8.1851
148.9815	-2.7320
151.0796	-1.9687
148.7393	-0.5396
150.9617	2.2694
148.9438	-31.3970
148.5561	-9.0338
148.5557	-10.1526
149.9236	-14.0241
148.6685	-22.5980
148.4026	29.9879
148.2596	1.0546
148.3135	-27.2145
148.5035	9.4126
149.6247	-0.7983
148.8031	-20.6128
148.0991	3.2847
148.1914	-3.9302
148.1567	-2.3632
148.9638	2.8991
148.0659	6.0736
147.8366	-2.7120
146.6239	4.8543
146.4400	-18.5967
145.3201	-4.4127
145.1510	2.2890
145.2834	-20.8779
145.5322	22.4361
145.1094	12.6705
144.9960	-9.0603
145.2999	-13.4462
144.8764	-13.1473
145.1339	11.7862
145.1058	22.5255
144.3021	42.2529
144.2879	19.5701
144.3922	2.3941
144.0300	-1.3411
320.6582	1.4538
320.8337	-5.0649
144.0096	-18.4731
320.9540	-21.0134
143.5710	-6.7149
143.4648	-8.1287
143.1980	-17.7475
142.8495	-10.5888
142.6691	6.1661
142.5188	-2.5362
142.3797	24.2504
142.3085	-8.4130
142.2420	-0.2622
142.2270	-20.1967
322.5001	43.6477
141.9916	-32.2091
141.5696	17.8528
141.5889	-21.1346
323.0518	40.2883
141.5893	-17.9947
141.5739	-16.3105
323.1299	39.7740
141.4618	-9.8361
141.2262	-6.3899
323.4095	74.3375
141.1432	2.4138
140.8275	-33.9163
323.9762	36.6086
140.6502	-17.5746
140.2717	-23.4493
140.2130	-11.1967
139.9930	11.1587
139.4295	-2.6065
139.8825	-37.7519
139.1779	-12.3766
139.0995	8.9072
138.8264	-16.7833
138.8742	-6.5060
138.0447	36.6017
138.5493	5.5499
138.5363	7.1058
138.1419	-15.4707
137.4074	1.2535
137.9815	-8.5277
137.1380	-13.7448
137.3640	-20.8723
136.8668	13.0265
136.4527	21.9274
135.6523	-8.2492
327.7552	29.8706
327.8119	33.9765
135.7645	-14.0613
135.6316	-5.4498
136.2955	5.2480
134.9731	13.3862
134.8115	4.9926
134.7901	2.2137
135.7144	-8.2657
134.0120	0.3352
329.3869	-14.6750
134.3623	3.7124
133.9951	11.5676
133.2162	1.6075
133.4753	-7.7614
133.0117	-6.7934
132.8646	-8.9974
135.0554	-21.5021
135.2979	6.6983
133.5971	-5.9741
135.1215	-12.8104
132.5759	-8.1917
134.7047	-5.8700
134.9378	4.3583
133.7162	31.6299
133.2047	3.8265
134.2312	-5.7972
132.9734	13.7896
132.4672	-31.3606
133.9034	14.3577
132.6649	1.4519
133.4751	-10.0233
132.6024	6.7378
133.5523	-12.1171
331.0109	29.4619
134.1757	12.3866
131.8645	22.4747
133.4712	1.5318
331.7250	-5.5900
132.6496	-28.7369
131.1683	22.4191
132.3103	7.5957
130.9135	4.8808
133.1158	-5.3193
132.9064	3.9149
132.4451	80.4557
332.5667	10.9014
131.2432	-5.5386
332.7392	92.3387
131.2019	-8.3244
131.9985	11.5883
129.7214	22.0773
131.5732	12.0267
131.2199	-2.6247
131.3419	41.3566
333.6869	-189.6107
131.0480	11.4202
129.9053	8.1066
129.0524	-9.7271
131.4323	11.2351
130.1576	-2.5294
129.4651	1.2787
130.9080	-5.2823
128.8711	-107.5895
334.0989	13.6017
130.2171	15.8165
127.7351	-2.2453
127.3067	-32.5245
130.3090	7.4255
128.2052	38.4529
128.5416	23.2178
129.5411	15.2909
130.6441	-9.3718
130.3439	10.3047
129.1579	17.2867
130.0365	4.4069
127.2512	30.6817
129.6170	30.3217
128.6045	29.2384
128.4999	-18.3430
127.3277	8.0777
128.5690	-17.0476
335.0999	-57.5344
128.0165	3.4346
126.4143	19.9850
125.1722	-31.5265
127.5314	-4.4455
126.8424	5.5418
127.6656	-2.9962
336.1011	-56.2111
336.1988	-66.6202
123.7208	-15.9512
128.2033	-28.3497
127.0854	-6.4654
127.2052	8.1887
122.8217	-8.6014
127.0620	13.4867
127.8513	-4.8446
126.7695	7.3763
124.8388	11.6901
124.0607	27.2898
124.9272	-8.2314
125.1571	4.2734
124.3662	-8.9220
123.7983	24.2764
123.1037	-4.6330
123.2179	-8.3850
120.4034	-10.9842
122.5530	11.5728
122.9323	9.3909
121.5549	-14.1565
123.1754	21.1083
124.1158	1.0159
122.2248	5.0291
119.0697	-0.1399
118.7800	3.8749
120.6600	-3.9774
122.6103	-7.1819
123.4510	-9.6318
118.6516	-56.1119
122.4111	-27.3130
120.9241	6.9087
122.5286	-2.7200
119.0835	12.0470
118.7942	-5.3605
122.0341	-6.0579
118.0508	-20.2405
122.3832	-2.3218
118.6656	9.1048
115.3685	-7.8195
116.4078	-1.7486
120.9341	34.5402
120.9096	-8.5471
121.6061	9.3476
342.7134	5.9634
116.3745	5.2224
118.6807	17.8619
120.1570	3.9026
121.7951	12.1220
121.3143	-42.6358
118.9594	4.7502
116.1181	13.4117
116.0892	65.4686
121.2777	-4.8760
121.2654	37.1047
121.2863	-11.7758
121.1437	1.4509
117.6736	22.4794
114.9044	28.3136
114.1692	4.3156
116.2187	-0.2920
112.2517	-13.0517
113.4696	-8.5531
117.9079	15.9841
111.8916	-15.6207
118.5001	19.8932
113.5383	-40.3766
117.7081	29.4250
120.2299	-5.7456
112.2275	-15.0967
114.1262	-21.1968
119.8452	-10.0968
110.7542	8.4738
344.7543	-24.9378
345.7937	44.1134
111.5152	4.5246
118.7224	-6.3068
115.2185	-4.5581
115.3830	-0.5698
117.4343	-12.2931
114.7421	32.9239
109.0458	10.6092
114.4063	-9.1358
117.7007	19.2641
108.7002	-19.6424
117.1637	-10.1196
114.8268	-3.8002
109.6707	-5.9443
112.1888	-12.9118
109.8218	-24.5779
111.3856	-19.7828
109.7898	-27.4361
106.7352	-3.8238
115.1441	139.4565
112.2251	-27.5913
108.7944	-18.4395
114.4688	1.6276
113.2237	20.1997
115.3086	28.1994
111.5513	26.4566
111.5492	8.5803
104.9499	10.2578
116.0225	11.1840
112.2130	26.5633
113.5650	4.1117
348.8589	25.6176
105.4727	7.6916
108.9227	18.5498
114.2646	-7.3833
104.5442	32.8796
114.0743	-3.0651
112.2405	21.1329
112.9189	16.3976
112.3753	-3.6698
104.9122	14.7929
112.7028	-13.3321
107.5650	-41.4572
107.2223	-6.2687
105.0727	9.6911
108.8192	-16.3032
108.7874	-12.5469
108.7552	-19.4874
104.1722	-9.1864
113.3489	13.6648
111.8676	0.3875
102.3255	-16.7239
108.1776	-1.0016
109.0345	-4.7206
106.1471	-41.4079
101.4794	-0.5017
101.2106	-27.2753
106.7864	6.9058
112.7674	0.6738
103.2139	-1.9388
353.1528	-0.0703
105.6038	-48.5098
107.9917	6.5472
101.4868	-23.9224
101.7472	-18.9245
111.6784	-17.2053
103.7323	-5.9390
107.6105	0.7524
102.4891	-25.1015
97.7479	-10.6341
109.8591	8.5287
353.3307	-16.6328
110.5515	16.8184
106.8605	32.0819
97.3066	-11.9837
108.0357	8.7797
108.0317	-7.1645
96.6989	-13.3916
100.3100	-47.8650
355.1270	17.7542
109.2236	24.0278
109.2673	-19.3410
97.1045	4.1179
103.2505	-17.6944
97.8647	-19.6939
102.5618	-9.7390
106.8203	21.1325
102.0427	-10.4987
95.9146	-8.3148
108.5963	-26.5352
105.7110	6.8358
96.1836	-22.7985
105.2531	19.5615
91.9370	12.1949
93.6181	7.0775
97.2650	-14.3277
104.4492	9.7197
107.3004	-15.3344
104.2224	11.4069
97.5523	13.1360
106.8720	-16.4405
102.5877	-20.7703
358.8646	-9.3210
107.5073	-18.8854
102.2094	-23.8985
106.9183	-18.9523
107.1911	-23.0872
103.9847	13.4922
104.5596	-2.7862
92.6122	-25.9872
96.0550	-24.8472
100.5020	-6.8032
357.8301	-9.5245
98.6836	-11.7623
106.1967	-22.4264
102.7082	1.4289
104.9849	-10.4570
105.1323	-40.9955
99.1067	-10.1805
101.3986	-16.1247
98.2344	-12.2900
98.1944	-8.0696
89.0574	30.1187
95.4799	7.8664
101.1170	0.3358
90.1073	13.6140
104.7110	-26.6742
104.7262	112.6502
88.2765	-3.5928
98.3428	-21.1275
88.7738	10.9320
97.9537	-11.6762
359.8914	40.8674
92.0126	-4.8608
92.9012	2.7219
104.6089	-27.4810
91.7084	-12.4232
98.8918	-4.9820
100.1774	-32.1321
89.3536	31.9805
87.5324	17.5923
93.7417	5.6908
95.1358	1.2547
89.1736	28.8135
95.0988	-13.2953
97.5905	-4.3039
99.7238	-3.2855
91.0561	-2.2276
104.1380	-8.2375
96.8114	-2.6504
100.5772	-5.2355
20.8244	9.3475
102.8499	8.9665
101.3700	28.3208
96.7730	4.7346
102.1095	9.4143
91.8844	-6.7212
95.1628	-6.1145
90.7823	9.3800
86.7235	21.7681
102.7933	10.1822
92.6842	-28.1172
2.8257	18.8571
87.2174	25.0652
23.3429	-22.6182
99.6475	-2.3324
3.4138	-41.6157
79.1832	10.1490
80.5003	-5.4392
101.9033	22.0469
94.7537	-26.0567
98.0088	-8.8369
3.1935	-0.4302
92.0981	-4.1306
78.4757	3.1068
99.2848	-4.0955
85.3150	-16.2513
84.1803	17.1989
4.9821	34.2352
91.0448	-9.7831
90.6611	-3.7431
87.1247	37.1893
95.1136	8.3791
94.5317	-9.1280
92.4142	13.9194
97.6588	-1.6186
81.0907	-7.7867
88.3636	-9.5251
26.4528	4.5129
96.9065	-11.3217
4.7732	-3.3511
90.4857	-12.7627
80.1256	-8.4395
88.9610	-2.8546
87.7965	8.0749
99.1700	-15.4492
82.6567	-17.8623
82.6049	-23.3685
71.1707	3.5368
94.5721	-0.9837
85.9234	37.6087
70.4813	-28.7934
87.4585	18.3043
97.2800	16.3253
97.8852	-5.5564
82.1920	-34.2828
92.2467	-63.1215
83.3264	-13.8460
82.2342	-40.0829
77.4583	8.4866
77.4338	32.4204
94.6152	-9.5849
87.1812	32.6427
96.9632	1.2079
92.5365	35.2734
78.0898	-18.4160
78.1102	-20.2029
75.6295	9.3155
36.1055	1.4307
81.9207	-13.7404
91.2879	-12.2947
92.9226	-50.0312
92.4350	-36.6917
96.1193	-8.1990
97.1005	-1.9300
7.0386	-7.3250
79.4381	-6.3408
83.8311	-7.4915
84.1211	0.3768
87.9181	-15.2696
83.6342	-3.8317
67.9722	-40.7329
88.6934	23.8094
96.6423	5.4442
66.4011	22.8268
85.7650	54.1069
38.9323	-5.4723
95.7593	23.8916
61.4332	-14.5485
79.3986	-4.3694
69.2502	-28.2408
37.7740	-23.2958
90.1558	-38.5604
52.2734	4.8384
85.4263	1.8239
85.3976	-10.9913
44.1786	-10.3627
45.6972	9.8177
30.0690	-5.7424
69.0514	-1.6313
94.1584	6.9284
78.5439	15.1911
88.0578	-23.5875
59.7405	2.1166
81.3586	27.8470
32.2971	6.2305
89.5753	-21.4564
81.3642	21.8983
63.0587	0.0388
90.1828	-49.4114
47.7121	-1.6356
65.8766	2.8216
92.5065	-56.8186
88.8615	-27.7783
79.4283	19.3728
76.2606	-0.1287
76.2687	8.0808
91.6625	-50.3341
64.2567	-3.0921
82.0750	3.3425
58.5817	-13.0399
49.2715	-3.9803
55.2634	-6.3775
84.7116	36.6645
55.2279	-27.4480
75.5382	-4.0768
76.8432	-6.1904
41.8591	-40.6525
86.0201	-2.9020
55.8625	0.9294
53.7185	13.5093
90.7909	-51.5007
11.2225	-76.4665
35.3462	9.6586
62.0236	-18.2375
82.8782	-13.1247
56.2109	-21.2456
35.9230	-1.0511
59.6068	-36.1513
84.8931	-15.3803
90.3813	-48.3489
65.4909	0.7401
52.6539	28.5764
83.1143	15.8929
83.1069	-12.4921
84.3128	-18.4543
86.8190	-37.2554
86.7945	-17.5666
87.2808	-25.4150
91.2670	-34.1364
86.5066	-36.0554
66.4174	2.5211
66.3861	2.7484
12.6892	-28.3770
86.2246	-37.0137
84.6807	-5.1193
73.9724	-41.7670
72.4134	-4.1231
53.3964	15.4864
33.1831	44.5234
33.2130	43.3444
81.6263	-33.5754
47.8680	-6.3289
80.8310	-3.7759
69.5454	-18.0429
34.7716	33.9161
55.2773	-15.1668
60.3227	1.4837
76.4746	-10.8883
55.7526	-20.9082
74.9054	-21.8287
34.9023	46.6895
75.7176	-2.9898
76.9203	22.2704
75.5175	19.7060
36.3404	1.2780
70.1413	-48.7727
79.9955	-11.2976
46.1226	7.8981
68.9005	-8.3616
46.4974	17.7023
86.6232	-10.0556
88.8283	-3.1371
84.9746	15.2455
81.9475	-27.5604
82.9255	9.0366
59.5474	-5.2110
78.3661	-15.0246
64.3028	15.8438
66.8357	17.0740
58.7523	15.7299
73.0705	-5.3303
82.7868	9.1412
80.7179	-20.1742
80.7001	-21.3513
78.7163	8.8440
78.6929	31.6919
87.6219	-21.1293
66.6723	11.3956
66.6903	29.4324
48.3384	-7.2877
85.8281	-26.8860
77.8657	-24.5426
68.4743	14.1276
64.2902	33.5963
87.0511	-43.9034
60.3777	14.7897
58.6548	61.9361
71.0079	-20.1776
54.0736	-10.5665
57.5845	-0.6342
78.8303	-16.4331
36.4573	-39.9462
68.8840	7.1042
66.1736	25.5036
73.9978	-31.0907
84.0196	31.6671
87.4028	-32.5927
46.8605	26.9083
68.6990	17.7004
71.6958	30.8759
41.6407	10.2983
57.9230	10.0921
67.0244	12.8499
76.5079	27.8308
84.0147	-13.0877
48.3732	-1.4462
48.3766	5.1540
60.4511	-8.1085
85.5669	24.4772
40.6744	-0.6142
53.8364	-5.8367
51.2840	7.8540
70.5361	1.4546
74.4543	-0.2574
45.2665	3.9374
68.7605	12.7011
79.7357	0.3081
84.5157	0.5015
51.9314	-2.2154
51.9906	-8.4150
63.8924	-50.5640
45.2139	13.3281
72.7896	-7.1324
44.4585	2.5174
62.2813	-1.3516
75.4174	3.9103
76.5027	-4.1963
74.5298	-3.7272
73.8908	32.5900
81.8366	-6.6157
51.2496	2.9895
83.5370	-6.0610
61.0289	-58.2365
74.0939	19.7108
81.6010	-15.7913
84.1950	-4.9737
83.7492	29.4603
84.0245	-1.3630
74.3785	-5.3406
49.6903	7.4068
40.2223	-0.6075
74.4404	11.9202
83.2575	1.1515
44.0794	27.4841
81.2319	9.6719
57.2744	-33.2005
63.5065	13.0456
66.0471	45.5347
82.8606	-3.9792
74.9265	7.3429
60.1146	-8.8999
61.4145	16.9113
80.9266	-47.9174
44.6171	37.4686
51.8320	24.3185
48.2706	3.7623
47.2461	18.4128
47.1534	20.7593
81.4295	15.8252
77.7309	-24.1468
75.4058	3.9314
71.4671	-11.2057
71.4897	-10.4516
65.3912	49.0985
50.3495	-8.9232
76.8019	-17.7476
45.4567	9.7919
58.7562	-39.3635
79.1724	-23.7704
72.8953	14.6766
64.4357	17.8099
74.9259	19.0513
78.0686	-53.1602
72.1704	-20.7070
69.1245	-26.3938
75.3999	9.5394
42.3933	6.2742
50.7018	32.7937
51.5043	22.4545
58.3541	-2.3550
70.2379	-0.5305
69.9115	6.6433
64.2502	-55.9847
66.1952	43.4248
69.6172	-14.6954
69.2972	6.4806
68.5038	-21.2059
57.4562	5.9443
57.4411	4.9930
63.8900	-31.2398
64.7867	-67.6288
64.8271	-27.7351
71.7647	22.2418
46.6882	3.3850
71.4945	0.1092
61.4860	-4.7250
73.3079	50.4066
73.3268	45.2017
47.5483	1.3507
47.6296	7.3704
58.7452	17.1186
61.2976	28.2035
70.6166	-11.2208
72.1147	23.3489
60.4059	22.6247
60.3957	26.7418
68.9631	11.4123
62.4571	84.7911
62.4238	47.4376
60.9447	-67.1495
61.3972	26.2060
59.7517	3.7795
48.7601	-13.6371
56.2746	12.9798
54.1237	-0.2523
52.2851	0.0000
56.5454	-31.8936
57.8524	-27.0075
231.7285	-75.9156
223.3574	-33.4697
229.1423	-169.5688
220.5256	-5.6598
230.9477	45.9605
219.9968	-5.1665
218.4388	22.4231
229.2709	-37.9709
233.3568	47.1190
218.1905	29.9009
230.4498	-79.4513
223.0886	143.1247
215.7068	34.0015
213.2163	-32.2459
220.6649	-172.5326
230.2662	49.3234
230.2622	56.9331
212.6600	84.8563
213.9765	-39.6035
228.4120	97.6354
211.5422	32.0643
210.5927	16.2678
216.7816	-155.5231
234.9337	155.7531
233.5744	75.1912
211.3910	45.0016
224.5416	127.7609
232.3443	-2.4611
212.8236	22.8412
211.7873	54.9758
213.3019	16.0043
213.0665	38.9526
212.5780	1.8548
209.8030	70.0771
209.7835	74.9143
216.2322	-133.7668
209.3697	24.8047
236.0003	88.0742
217.2273	-142.4365
236.5477	137.2725
221.1352	-83.8073
205.1345	17.5532
237.0415	98.5649
236.8030	111.6039
236.4777	77.1952
217.5416	-124.8183
230.4195	28.9074
222.4663	-15.0983
221.1398	-95.5484
222.1222	-6.7344
237.9366	96.3401
238.4048	62.3831
211.9329	-91.0279
233.4994	-2.4972
202.3571	56.3973
225.2853	17.5835
239.2610	50.0472
236.6477	59.6265
208.4917	-46.0164
228.2079	54.5972
231.7304	27.4697
202.5253	21.8713
217.3512	-151.5158
220.0524	-115.0252
217.3600	-142.8952
206.6535	-79.4882
201.7853	37.3883
204.4756	-89.5177
222.4264	-14.7728
222.4367	-43.0213
231.9636	34.2832
209.1676	-51.6379
201.4011	-2.8784
235.9690	28.2675
238.3877	32.0768
221.8304	-0.9662
203.3025	-3.4558
223.7990	15.3361
238.9011	34.0314
218.3875	-41.0344
218.3253	-53.4422
228.6099	32.0402
201.8575	13.9331
228.3419	30.9125
201.2083	-16.7571
211.5084	13.5106
217.1499	0.2780
217.3588	2.9671
217.1946	-1.7125
239.1250	2.3521
199.0290	-0.0662
232.8891	-1.4116
200.7126	33.3280
205.8627	-0.2629
211.5412	39.3228
237.1458	-11.6631
231.3562	1.4389
238.5573	-25.5045
207.1752	-2.1538
221.5517	3.3220
210.5892	-18.1273
234.1289	38.3655
235.4826	31.0242
200.0713	28.1833
216.9272	51.1544
207.4129	-98.0586
232.0380	30.6702
195.6847	-6.7771
213.8226	-1.9916
207.1486	-65.3323
224.8581	5.6549
205.8833	-45.2765
205.8122	-37.5919
229.6740	2.7744
197.4238	73.2621
226.5032	-13.9827
232.3010	29.3812
197.9590	7.2371
212.2643	-29.0812
216.5033	-10.1370
242.4148	-42.9999
227.0223	-1.8689
269.3501	48.7635
216.4395	5.2870
193.7581	-36.4036
224.0061	10.6841
223.9678	14.5964
236.7940	45.4675
228.2551	6.0303
221.6072	-34.7348
195.5547	3.6359
196.2422	19.9705
195.5423	7.4803
234.2795	60.8494
209.1515	11.3698
234.2645	45.7966
223.5956	-10.3731
194.1629	-1.8535
220.9045	-75.4649
194.1348	-1.7775
201.0949	34.2579
214.6800	-3.4493
194.4623	-6.1116
211.0323	-22.7096
218.9501	-143.1612
246.4616	-6.5659
194.2209	20.2104
196.2806	21.3561
215.6898	5.7028
194.1964	-4.4015
210.3563	-10.4214
195.5212	21.0630
195.4132	21.1508
205.6984	-108.1327
243.7098	10.7811
206.0748	-46.7659
240.2902	-41.6709
219.7840	-143.7648
237.6106	-2.2847
214.9737	-46.3941
198.3645	4.8363
191.6322	70.1513
227.5045	-22.4979
208.9426	-17.7750
228.9822	-11.0795
229.0653	-19.5461
194.0722	0.5202
202.7137	-57.3547
193.3882	-0.0994
193.3784	-14.1269
197.8197	0.2255
237.2861	22.0897
216.6726	-97.5719
221.6437	436.1301
196.6937	21.7223
193.9934	10.0485
225.9759	-1.5578
235.4148	37.2955
231.0764	2.6945
197.7004	6.2610
202.0895	-17.6666
245.9023	0.5507
202.0822	-13.3273
201.2304	-0.6193
218.7159	500.8030
190.6368	71.2995
218.7294	-130.1900
208.7250	-77.5874
227.1185	47.4907
201.7081	-4.4197
213.9478	-106.7229
212.3779	-40.0869
222.3208	-90.9625
233.0670	22.2824
233.0626	10.4736
230.4416	-4.1438
198.3077	-6.5165
225.0168	-15.7973
191.6332	43.9406
209.2752	-53.2989
189.6020	18.1909
209.4952	-69.5251
188.8374	8.7823
231.9838	17.3913
211.7708	10.4774
228.9532	34.5584
232.4513	30.2219
253.1690	67.1098
213.1772	143.8635
216.9206	-76.9049
201.2534	53.9978
212.7240	-54.6635
225.7606	-23.4552
220.5760	-10.8935
210.6540	71.0240
210.0403	-3.5230
243.9238	-14.7122
215.7887	-10.4615
195.4017	72.9891
187.6671	-12.9977
195.5065	36.5306
245.1876	-12.4555
196.0181	65.5271
192.7612	8.4897
193.8723	11.4180
210.3396	22.4948
190.9521	24.5921
275.6204	-87.1450
211.7913	-5.1789
215.3181	-85.0210
212.8360	-33.4154
190.7169	-9.4890
276.1561	-50.2088
215.3300	45.2779
247.4543	12.7416
199.6457	61.3536
186.1963	-14.4713
194.2386	41.9938
248.9433	17.4325
195.5124	41.6383
215.2893	7.0518
207.4291	58.1935
195.7748	31.5799
215.2328	11.4973
205.7875	11.1348
277.1916	-73.2726
207.7061	17.5957
200.6361	38.9619
194.6025	42.6106
184.7836	-5.9013
186.6950	-1.4149
198.5460	19.1210
200.4600	38.2637
188.5889	36.5325
188.1559	34.1038
189.6887	15.1062
190.5776	27.9817
196.8739	12.1822
204.2113	-5.4460
204.2393	-24.0388
188.9597	-23.2104
202.6624	-32.7382
197.5490	1.4523
203.9631	-37.2652
256.1914	7.9480
187.6554	18.1108
199.8556	-4.1968
194.8177	-2.1720
200.2103	14.0961
207.2057	3.9218
187.8971	1.4200
190.4746	-10.5332
188.2034	4.6349
190.2082	1.5706
187.2827	-5.2258
182.9847	-16.3968
183.1036	-41.7066
202.5446	-2.6346
183.1517	3.1763
186.3225	-0.2854
189.7672	-2.8474
184.9592	3.3681
193.1544	6.0483
193.1465	15.2233
184.2188	-8.7800
185.5332	-3.4076
190.7439	0.0254
186.9601	-8.6744
184.7485	19.7578
182.2707	-58.0464
193.2415	2.8882
185.1118	-14.6905
197.8966	18.4223
197.8346	19.3398
281.5296	-78.3231
181.8632	-34.7923
183.1154	29.7417
179.8962	-7.5199
179.8645	-13.9265
183.6115	11.0780
193.9654	-14.0942
182.0973	7.3071
184.3036	-3.5601
188.7994	23.5466
183.0930	-16.0359
184.1383	-14.2618
189.3623	-11.2014
187.2365	27.1477
191.7242	-12.0772
183.2704	-9.2719
190.4858	-36.3691
190.4565	-22.4696
178.1012	-7.6614
178.0987	-6.1345
192.4363	-31.5809
185.3879	-8.0256
192.2716	-13.4583
178.6172	3.9060
190.1076	-26.0507
186.6765	-13.3922
177.3799	-9.6759
192.1889	-31.8715
186.6842	-10.2623
176.9924	-14.5763
185.8177	-10.5746
178.1786	-21.5582
193.8108	-40.6028
178.9473	-4.1284
190.7973	-34.7384
176.6264	-8.0272
178.8588	6.1833
186.1056	-20.8184
190.9071	-90.3842
179.3919	-13.3297
191.1494	-73.9895
177.4700	-16.1928
191.3325	-102.5701
180.3484	-9.5068
178.4168	-26.0778
185.9555	-21.8773
184.5474	-27.3280
185.7498	-42.7583
288.3197	29.4030
190.5300	-59.0695
288.3580	24.7058
187.9647	-23.6119
176.2707	63.5177
178.3274	-12.7955
189.3885	-97.3414
182.7133	-20.6643
178.0239	12.5305
189.6881	17.1344
179.6453	-16.6317
174.9550	-5.4796
180.8004	24.5508
181.5521	-14.4850
174.6984	-13.7551
178.7637	-4.7374
177.4812	-29.2298
176.0265	-1.0042
175.6446	14.5184
174.7370	-27.9071
187.3862	-186.6475
176.9948	-27.2582
176.9815	-7.7240
178.0909	13.9072
186.9737	16.0354
175.8649	-22.6767
183.2039	-0.2412
291.0780	17.9526
172.2168	48.1749
182.6799	-7.1094
175.5674	-12.0282
184.3653	-4.0038
172.7891	-6.8464
181.7669	-14.6890
181.7704	4.4532
184.8521	-2.0785
181.8594	-25.4712
177.9067	-8.2917
172.8139	17.3516
182.4561	-19.5035
183.3568	0.6403
176.8571	-21.7059
172.9518	-2.8251
181.1837	-1.5430
175.9215	-37.2415
176.8320	-19.6739
176.8437	-22.7864
174.2552	-20.1757
174.5512	-20.2117
178.6850	23.6872
174.3256	-23.9344
172.8716	19.5274
173.4845	-1.2888
178.3194	6.2762
174.0480	2.4580
170.5559	1.0156
177.2110	-6.5843
174.9019	0.2116
170.2250	52.9592
179.0978	-17.4108
178.7398	5.1619
178.7216	2.4791
172.8805	-35.0702
172.3185	-56.4045
173.0924	1.0605
177.6841	-9.0987
171.6253	-3.3244
171.4726	13.7718
178.0826	4.9486
170.3223	-0.6778
170.2907	9.2813
167.9558	-20.2854
176.8019	27.4448
175.5826	13.8340
168.6618	14.8293
175.2131	36.2992
169.2343	44.8588
171.5695	-10.9664
170.6536	2.6720
171.5884	20.4653
173.0245	-25.2081
170.0169	-3.7542
172.7251	5.6635
173.2361	-3.5618
170.1119	-5.3966
167.9207	1.6518
173.6582	-8.8046
174.9004	1.8817
173.7887	6.8401
296.7766	114.7016
169.3340	5.0950
297.1122	48.0677
172.1755	-3.4981
165.1341	16.8003
173.9987	-15.7212
173.2585	0.1929
173.7283	-19.2145
169.5738	36.6250
168.3532	4.3523
170.9732	3.3440
171.0364	-4.0761
172.0934	-17.2205
166.9885	-32.0599
168.4958	30.3789
171.6334	-0.8400
170.4006	51.4838
166.1741	-8.7933
166.6204	2.4652
164.3665	9.1934
167.9809	53.8114
167.9996	37.2164
164.3517	23.2865
162.7479	-4.9790
165.4088	36.7708
162.9944	-21.6472
163.4082	-15.4769
169.5000	8.0254
165.0621	-4.8166
163.7031	18.8160
162.6362	1.7878
166.7029	68.1187
167.3924	-0.2580
165.8688	54.4410
164.7959	-22.9722
162.8126	1.3242
161.2639	8.4178
162.0706	-6.8354
160.9064	2.5681
163.2668	-14.2462
165.3420	86.5362
166.0240	10.0603
162.6142	-2.9168
303.3196	-26.6113
160.8475	-8.5221
160.5088	-11.6996
163.5199	43.3337
163.4865	39.5336
159.6437	-8.7412
162.9355	-0.2638
161.6509	-12.7139
163.5414	-23.4582
305.6064	-2.2537
159.4854	0.8253
165.2052	2.2502
162.9219	51.1084
161.9371	-1.5578
164.8364	-1.9109
163.7191	78.1726
163.6916	76.6479
