# PA[deg]	RM[rad/m^2]
292.1467	-0.6001
292.1286	-4.6156
163.3916	0.0519
166.7318	0.1411
166.3822	-9.4699
166.3599	-1.0421
291.5393	0.7465
166.3538	9.3004
161.9382	-3.0327
159.7090	-0.6740
160.3788	-2.9118
159.2876	-9.7224
290.5152	10.8250
161.2754	-5.8992
158.8038	-1.4722
158.6992	13.7754
159.3940	-26.1314
294.7009	22.2992
160.9448	-19.9279
159.0569	-1.3603
160.4820	9.2158
297.8098	16.9413
157.9982	-15.0154
159.1346	-0.2029
159.3353	17.3715
158.4857	-13.7083
158.4559	-15.0615
158.2502	-10.9764
160.7148	-9.7271
161.4748	-32.1790
159.3462	17.9409
292.9432	31.7981
161.4311	-14.4573
159.3263	-16.4477
157.0947	-4.2410
157.6986	-3.7354
157.5839	3.0275
157.2596	21.9411
157.3822	-17.6418
158.9590	-12.3204
157.6879	-1.7994
157.9407	5.7885
156.6084	7.6287
296.0380	13.2908
159.8597	2.5064
157.8214	0.7588
157.7928	-17.1176
157.6229	-12.7047
155.9432	7.4480
157.5817	-0.8717
300.7825	0.9850
160.4376	-14.2477
157.2738	-11.4069
156.2926	20.9156
154.7417	5.7121
158.8470	13.2679
300.1495	20.8255
301.5736	-69.5165
302.7161	-129.8743
155.0383	-5.3461
156.0710	-2.1897
158.0177	0.3028
153.6189	4.6982
157.0219	-2.2912
157.2732	35.6059
155.7082	23.2791
154.0835	-20.4795
155.7273	-17.7542
155.6618	-23.4708
153.6214	7.5982
153.5882	3.9722
154.2277	251.1591
155.4094	-2.5738
306.5333	1.8504
156.1479	-0.0307
153.2081	4.0362
155.7163	2.0859
155.6986	12.8656
152.6094	-8.4714
155.8690	-14.1127
152.2344	4.7972
154.7904	28.1861
307.9259	-58.0417
154.7434	-17.4253
154.7972	-11.7893
151.5287	-1.0083
152.9831	-8.6457
308.4644	-19.7392
154.0931	-4.4966
153.0501	29.1782
153.0659	7.8897
152.5723	-2.3520
150.7147	-27.2621
150.2906	-7.9747
151.0796	-2.1042
152.3553	17.5661
150.9617	2.1256
152.3983	16.9938
149.9236	-32.2313
150.5719	-5.1078
151.3012	-7.4296
150.0965	-2.2589
149.6247	-1.2180
148.8031	-20.0434
151.0523	0.9588
149.6026	0.0503
148.9638	1.7824
150.7094	0.0033
313.5072	-22.7227
313.5523	25.6382
148.0659	0.4381
147.8366	-2.0742
314.9513	3.4221
148.3145	-0.7827
146.9609	18.4316
146.8439	11.5845
146.8013	36.7946
145.5322	8.2450
146.7777	20.2925
146.7594	11.0837
145.6774	12.0763
145.2999	-24.0330
146.1563	1.0636
146.2438	7.5711
145.1339	11.7865
145.1058	22.5477
145.4591	25.3391
145.5060	12.3478
145.0332	19.2501
145.3344	89.7171
144.9112	30.9784
144.5185	-8.1573
144.0096	-26.1812
144.2711	13.6888
144.2486	2.2675
143.9860	10.2998
143.9837	11.1687
144.1119	22.1239
143.4974	2.4886
143.5203	33.5398
143.3067	2.2997
142.9735	15.6485
142.8455	25.2900
321.8079	45.1238
322.0146	17.6477
142.3797	23.9317
142.2420	1.2859
142.1539	-3.6726
141.8779	1.1873
141.8230	15.2837
141.5696	18.8399
141.5889	-21.9937
141.2848	1.3235
141.1657	-4.9220
141.1357	16.0105
140.8275	-42.0060
140.2657	35.4656
140.3806	3.4672
140.0352	44.7798
140.2145	13.3584
139.6991	-34.1011
139.4689	54.9070
139.5075	43.2491
138.9413	7.7004
138.8978	19.9163
139.0285	52.1394
139.0219	46.6633
139.6181	27.5005
139.5619	13.4330
139.0397	24.4456
139.4295	-1.2464
138.5930	-37.2777
138.9418	15.6864
139.1779	-11.1015
138.5670	-32.5675
138.5124	1.0396
137.9947	24.8346
138.6759	1.5412
138.2801	19.0138
138.3930	29.5230
136.1078	-22.9061
328.1968	45.6544
137.5075	13.1660
137.2214	26.6946
135.0991	-28.9652
134.9603	22.6125
136.4838	-1.2929
136.0053	2.8689
135.9840	5.8591
133.9745	84.4742
134.5975	16.8605
132.8141	69.5204
135.6523	-3.7787
133.3764	114.2775
131.9158	11.2827
134.1509	8.9315
131.5490	-18.0701
133.6782	4.4767
332.5603	1.1131
134.8115	4.9578
134.7901	2.1347
130.7067	5.6058
130.7052	-2.5655
130.6319	1.1177
133.7305	-0.1364
131.6265	-0.7123
133.0860	0.1272
132.8417	-0.0094
134.0120	1.8767
133.2162	4.7350
133.4753	0.7268
133.0117	-2.4311
132.8646	-5.1336
132.6336	25.5882
132.5759	0.8489
131.2572	-8.5723
131.2143	8.0593
132.4672	-24.9558
128.4392	-20.9649
131.8645	29.9940
127.4420	8.7472
125.3507	-2.8663
124.4012	-3.8737
123.6331	16.7740
123.5274	10.1107
130.9135	11.3491
127.1962	65.4363
127.1846	53.5849
127.9830	-9.5146
125.1743	7.8716
123.9323	0.8434
123.7889	3.0806
127.2111	-1.9405
126.9916	13.3416
124.5907	54.8704
124.6341	48.0272
121.4397	0.8828
122.8075	-34.5833
122.7656	-18.0880
125.6028	-17.0161
127.3067	-14.4658
123.8372	49.7397
119.4851	26.4423
123.5083	28.1886
119.4333	26.1162
121.3553	-42.2783
343.0006	24.9968
125.0241	50.4843
124.7925	-3.7536
123.4475	-4.4258
121.3428	47.7591
115.7986	-21.5497
121.1111	63.5088
113.5778	-1.2809
121.7027	34.7864
118.4340	-31.1946
125.1722	-7.6861
119.4966	7.6734
113.0855	-7.8094
117.0431	-0.2132
115.2944	-0.3164
111.0584	-21.9673
121.6018	-15.3792
120.7888	23.9939
123.7208	3.2557
112.0640	16.6440
113.7503	-14.6893
121.9269	-14.9659
113.3235	-23.4358
122.8217	2.6262
118.9897	64.6257
116.6011	-24.9872
112.8358	-21.8929
119.8148	-15.7381
117.6875	46.2421
109.5206	5.5747
110.0520	-12.7573
108.0035	-22.7746
118.6997	25.9322
113.9765	-12.9794
118.2348	39.6998
119.6691	50.7341
120.4034	-0.1553
115.8858	38.8285
112.4122	4.3182
112.3234	2.7039
116.9781	-0.1219
107.6754	23.0987
103.6788	-1.1652
117.9804	-13.4802
105.7360	-0.0156
105.8511	9.3925
108.0415	0.0722
115.8450	2.5313
112.2500	5.9523
115.8027	-26.3046
110.0949	2.2214
112.9810	-4.0954
107.7183	120.8820
114.9783	-17.2757
113.9494	7.6731
110.6003	3.5170
110.0358	-30.0984
111.3231	29.8791
354.4961	19.4789
113.2492	11.1897
107.9949	0.5290
105.5892	5.5913
105.6215	13.5033
115.3685	21.4597
110.4163	4.1145
102.7266	16.8643
102.6638	28.7804
107.0398	21.1912
98.5631	49.5003
101.2078	18.0742
110.3464	56.9856
99.0050	23.5035
111.1346	0.5202
102.4282	76.1375
112.2517	-23.6342
96.1336	10.9932
106.0463	29.7715
104.9461	14.4477
103.3444	19.9195
111.8916	-27.6885
112.2275	-4.2133
109.9404	24.9255
110.7542	6.6179
104.5661	26.2625
100.7384	7.2845
95.8287	20.0859
100.4309	0.1779
108.5067	72.4173
91.0971	38.3977
96.9165	46.8943
108.3164	81.1969
89.8752	-7.9176
95.0735	-3.0374
95.0930	8.8211
87.0555	-13.8544
97.0849	21.4518
103.7609	16.3385
109.0458	18.9806
97.4717	7.2168
104.8502	1.4176
98.0538	37.2967
96.4943	39.6992
108.7002	-10.3644
101.8110	21.0601
106.9259	44.0754
94.2394	29.1692
102.3010	27.8729
87.3908	-36.6551
106.7352	21.7424
83.5506	34.2889
98.6728	26.7877
105.5256	39.6506
83.8354	29.7302
87.8777	-10.5467
86.2522	-38.5652
97.5008	4.4281
101.7894	29.9456
102.8890	-7.9385
102.5426	8.4935
102.5018	-7.6627
99.1068	16.6665
95.8654	19.6290
103.7068	-26.0728
95.8730	17.2111
100.4010	13.7511
104.9499	38.2094
87.6283	5.7416
100.6349	17.9251
97.8612	31.3618
98.0241	-3.0779
99.3471	8.8089
100.2458	-0.9759
85.6705	23.1936
96.3082	0.6200
104.5442	56.9754
92.4183	-1.9566
86.4653	0.1680
97.8483	13.6038
88.3510	2.3649
102.0720	18.5759
81.6569	44.0190
88.3611	1.4892
87.5643	10.4465
101.2708	14.9278
81.4835	41.4679
85.6080	1.3602
93.9469	-6.8129
94.7059	5.3204
94.6413	-1.6853
86.3938	-0.3865
78.5018	-0.6060
80.7724	2.3105
96.5830	-5.9347
96.5621	-5.2588
89.6931	0.4316
102.3255	5.6364
101.4794	26.3414
101.2106	-0.3584
9.4616	-3.9988
80.2056	-13.7368
91.0225	-0.0251
90.2883	-10.1727
84.2795	-10.1477
77.5102	-7.1123
94.2056	-31.7120
97.7479	-21.0782
93.8402	-30.0780
94.9440	-3.7714
77.7895	12.8161
95.7781	-3.4883
97.3066	-19.5189
94.5536	-22.2603
96.6989	-7.9335
89.9098	-13.1703
75.1437	46.9708
91.7481	-20.5856
78.2669	-12.9495
81.8713	14.8236
77.0945	16.5201
87.0101	-57.5213
97.1045	-8.2570
97.8647	-35.1958
69.5863	-2.7646
84.7648	2.5504
91.8167	-41.0160
76.5266	16.1063
92.4526	-48.7000
83.0711	36.4247
87.2728	-44.1167
91.6594	21.0855
95.9146	-2.1293
91.9370	-16.9905
84.9939	10.4166
76.7645	-26.6821
67.9145	12.9203
93.6181	8.3366
81.1753	5.1536
92.6122	-32.8830
76.2970	12.3476
64.8111	24.3836
80.2810	-8.5184
89.0574	29.1245
76.9855	-44.7000
65.3411	3.6734
83.7723	1.5835
83.6400	-11.7217
77.5181	-1.6288
90.1073	-8.6395
78.0218	6.3942
88.2765	-2.0614
74.8146	-17.9608
71.4976	-14.6348
88.7738	9.2665
20.5383	16.5301
78.9329	0.0175
65.4826	-20.0710
20.3430	36.7395
69.7449	-11.2196
92.0126	-3.2510
91.7084	-15.5079
72.0655	-39.0141
81.4660	35.5825
89.3536	12.7604
87.5324	19.5484
75.7979	-33.9964
89.1736	8.9944
69.4295	15.8432
79.5026	12.3537
23.3484	18.4653
79.4855	15.7150
23.4117	30.0105
65.7815	-6.4486
79.3133	1.2468
80.6742	-2.3783
70.5332	-19.8078
20.8244	27.7138
58.3344	-13.9076
78.7274	1.1840
80.1322	0.1978
64.4266	2.5026
79.3406	-25.7044
64.4800	-1.1060
63.7915	-11.1225
62.9057	-4.6941
86.7235	22.8275
71.1329	-38.1997
87.2174	23.6636
75.0190	-18.1247
79.9730	-7.9183
23.3429	-4.1605
55.6313	-43.2828
55.5956	-36.4084
55.6210	-86.9844
65.4411	-2.0828
65.4039	-1.6912
64.2848	-19.5348
79.1832	10.9749
26.3910	21.5483
80.5003	-4.8277
68.3709	11.9644
68.3940	10.2379
78.4757	4.0005
70.4239	-6.6734
85.3150	-1.0860
84.1803	21.5855
62.9546	-2.3387
57.3237	-4.0137
74.1396	-7.4860
60.6641	5.3834
74.9885	27.8390
73.9616	-2.8558
68.3268	-0.6349
30.2354	2.8804
72.1561	7.9845
67.1648	-1.7052
81.0907	-0.2046
31.3122	-23.1980
26.4528	3.4642
31.3363	-10.2233
56.3164	5.3463
80.1256	-1.8793
65.3854	-1.8482
82.6567	-12.9845
82.6049	-18.1282
71.1707	24.0391
63.2226	10.7653
51.0206	2.6965
64.5318	-8.2522
70.4813	5.0587
54.7485	-6.0267
60.0084	-34.4553
61.6525	-49.4933
65.8786	9.8370
82.1920	-26.7789
83.3264	-8.4760
82.2342	-32.9123
77.4583	16.2777
77.4338	40.0418
78.0898	-10.2871
78.1102	-11.9728
75.6295	-1.2424
36.1055	1.8914
81.9207	-4.7368
37.9675	-7.8655
38.0152	-1.0845
79.4381	7.7623
46.0134	-2.9867
67.9722	-24.3173
45.9736	11.4802
52.6302	11.8927
66.4011	8.4930
38.9323	14.0995
61.4332	0.2621
79.3986	11.5328
69.2502	10.6197
37.7740	-19.3427
52.2734	2.6711
44.1786	-8.8528
45.6972	11.4914
30.0690	-14.4879
69.0514	31.1848
78.5439	33.9222
59.7405	7.7973
81.3586	38.4214
32.2971	0.7494
81.3642	32.4181
63.0587	20.9739
47.7121	12.3375
65.8766	-12.3056
79.4283	36.7684
76.2606	7.6400
76.2687	16.0340
64.2567	1.9762
58.5817	-21.4215
49.2715	10.5673
55.2634	8.6691
55.2279	-11.9480
75.5382	0.5606
76.8432	7.9259
41.8591	-24.9245
55.8625	8.9546
53.7185	19.3689
35.3462	12.3128
62.0236	10.4482
56.2109	-15.1517
35.9230	6.3151
59.6068	-34.0343
65.4909	-14.3648
52.6539	26.9615
66.4174	-12.5008
66.3861	-12.6549
73.9724	-15.5309
72.4134	10.6243
53.3964	14.8681
33.1831	39.7110
33.2130	38.9035
47.8680	-8.7282
69.5454	3.8812
34.7716	37.7639
55.2773	-5.8812
60.3227	15.4801
76.4746	8.0090
55.7526	-9.0465
74.9054	-5.9180
34.9023	51.2835
75.7176	13.3882
76.9203	41.9684
75.5175	36.2361
36.3404	-1.6624
70.1413	-34.0861
46.1226	5.2763
68.9005	-0.5499
46.4974	14.8593
59.5474	-5.6515
64.3028	25.4816
66.8357	4.1949
58.7523	11.6943
73.0705	19.1983
66.6723	-4.8053
66.6903	13.3609
48.3384	-9.2186
68.4743	11.2308
64.2902	47.5633
60.3777	23.7613
58.6548	62.7769
71.0079	-18.8582
54.0736	-10.7686
57.5845	1.5370
36.4573	-24.0883
68.8840	5.1131
66.1736	0.7273
73.9978	-3.4168
46.8605	23.4181
68.6990	12.7654
71.6958	27.6325
41.6407	3.1832
57.9230	11.5504
67.0244	-1.4702
48.3732	-4.9763
48.3766	1.5318
60.4511	0.2523
40.6744	-0.8493
53.8364	-0.8043
51.2840	7.5493
70.5361	0.4773
45.2665	4.2281
68.7605	4.6667
51.9314	-1.3061
51.9906	-7.3994
63.8924	-4.8646
45.2139	14.5849
44.4585	4.0851
62.2813	63.7715
51.2496	-0.8200
61.0289	-45.7261
49.6903	8.3087
40.2223	1.5373
44.0794	23.6830
57.2744	-35.0680
63.5065	84.8004
66.0471	30.6135
60.1146	-4.6178
61.4145	32.3130
44.6171	35.0556
51.8320	23.9525
48.2706	6.7550
47.2461	23.7104
47.1534	26.5390
65.3912	60.0863
50.3495	-5.2307
45.4567	11.1212
58.7562	-46.2814
64.4357	68.3590
42.3933	11.2946
50.7018	38.4583
51.5043	31.3011
58.3541	-10.6314
64.2502	11.6662
57.4562	-1.7217
57.4411	-2.6287
63.8900	39.2674
46.6882	5.2805
61.4860	-0.5388
47.5483	7.9283
47.6296	14.5199
58.7452	4.7725
61.2976	27.6127
60.4059	11.0060
60.3957	14.8630
48.7601	-6.3482
211.5084	-2.9703
217.1499	-2.4567
217.3588	2.8373
217.1946	-4.7009
211.5412	21.8006
207.1752	-0.9240
221.5517	-0.7055
210.5892	-30.5630
216.9272	41.4303
207.4129	-96.1485
213.8226	-10.7404
207.1486	-62.1424
224.8581	-4.7631
205.8833	-32.6882
205.8122	-24.0962
229.6740	-13.1572
226.5032	-15.5412
232.3010	-12.2732
212.2643	-39.9399
216.5033	-20.4389
227.0223	-6.9085
216.4395	-5.0184
224.0061	-8.6796
223.9678	-4.7401
228.2551	-5.6855
221.6072	-48.4882
234.2795	20.7117
209.1515	18.8095
234.2645	5.8222
223.5956	-30.7427
220.9045	-90.1665
201.0949	-14.5480
214.6800	-4.2716
211.0323	-36.0288
218.9501	-146.9551
196.2806	-3.0482
215.6898	-0.7843
210.3563	-20.5496
195.5212	7.2015
195.4132	8.4332
205.6984	-92.4577
206.0748	-32.1293
240.2902	-41.8023
219.7840	-155.0453
237.6106	-39.1762
214.9737	-46.3556
198.3645	-4.7660
227.5045	-46.6772
208.9426	-13.3339
228.9822	-35.3654
229.0653	-43.9370
194.0722	-12.4480
202.7137	-72.7071
193.3882	-15.4025
193.3784	-29.3476
197.8197	-14.3149
237.2861	-11.5595
216.6726	-114.3005
221.6437	410.3291
196.6937	-8.3776
193.9934	-1.4285
225.9759	-45.7432
235.4148	8.6756
231.0764	-24.4361
197.7004	-7.2432
202.0895	-38.8798
245.9023	18.6879
202.0822	-34.4678
201.2304	-34.9931
218.7159	477.8059
218.7294	-153.5093
208.7250	-75.3137
227.1185	4.7004
201.7081	-29.4888
213.9478	-102.6310
212.3779	-34.7276
222.3208	-122.8679
233.0670	-12.6727
233.0626	-24.4106
230.4416	-32.6005
198.3077	-11.8470
225.0168	-69.2794
191.6332	21.3875
209.2752	-47.7639
209.4952	-70.0306
231.9838	-14.0349
211.7708	9.4539
228.9532	-5.2198
232.4513	-2.4940
213.1772	154.3727
233.4515	14.3938
216.9206	-99.3306
201.2534	28.7435
212.7240	-44.0013
225.7606	-87.4340
220.5760	-41.4186
210.6540	61.4707
210.0403	-11.6301
243.9238	-7.1530
215.7887	-19.7241
195.4017	55.7838
195.5065	17.6649
245.1876	-2.1675
196.0181	49.8311
192.7612	3.4738
222.4611	-39.3956
193.8723	13.4047
235.7403	5.1333
210.3396	13.9823
190.9521	5.3909
211.7913	-1.5056
215.3181	-88.3730
226.8014	-62.7518
212.8360	-17.0801
190.7169	-28.7510
221.1156	-94.9317
244.3191	13.2962
231.6350	47.2092
224.2571	-49.3750
235.1165	-35.0588
215.3300	41.7671
236.5925	26.0434
247.4543	24.7607
199.6457	30.3025
194.2386	38.5821
248.9433	26.8551
195.5124	31.4503
244.8486	0.5020
215.2893	4.0879
207.4291	55.7431
195.7748	22.7464
228.0955	-3.1822
215.2328	9.3308
205.7875	34.3475
207.7061	15.6825
218.3842	-78.8036
200.6361	20.6815
235.0559	-14.2655
194.6025	33.5023
233.7289	0.4870
230.1439	28.6402
215.7555	6.0137
224.0756	-25.5362
217.4105	-47.2870
231.7603	-20.4776
186.6950	0.2175
198.5460	5.2807
200.4600	21.8871
188.5889	36.1461
188.1559	31.7234
239.7696	-1.1394
189.6887	2.4634
244.1295	-0.3326
190.5776	22.3395
212.5595	24.9394
196.8739	13.6076
204.2113	20.1097
204.2393	2.2438
188.9597	-25.8659
202.6624	-29.3794
197.5490	0.7312
203.9631	-15.5087
256.1914	-4.7022
187.6554	18.8807
199.8556	-21.2890
194.8177	-2.6383
208.7983	9.4971
200.2103	3.5413
207.2057	2.1561
248.1801	-1.2060
187.8971	7.6932
254.2186	0.2771
190.4746	-9.9770
188.2034	9.6292
245.9508	7.1333
190.2082	-0.1075
187.2827	-0.3711
230.0064	-7.7668
250.4896	-9.1901
233.7336	-0.0002
183.1036	-0.8978
213.3194	-0.9709
222.3663	-0.7051
244.7328	-1.6866
202.5446	-0.2137
183.1517	41.3211
186.3225	0.2465
240.5810	-2.3512
189.7672	-1.7030
216.0595	17.1448
184.9592	2.5900
220.6487	1.9638
230.0508	-37.2698
219.4759	55.4636
230.1297	-49.7887
193.1544	8.1992
193.1465	17.4117
184.2188	-4.3445
248.4385	-17.0601
185.5332	-3.1353
232.4651	-50.0968
190.7439	12.1349
186.9601	0.0952
184.7485	19.3030
211.8205	33.8875
221.8264	4.3289
182.2707	-22.2509
193.2415	6.5315
185.1118	-14.6957
197.8966	7.4031
243.2701	-9.2790
257.8512	-31.3375
197.8346	9.3169
218.9151	23.4455
218.8291	21.5421
218.7940	32.9475
259.7386	-10.3690
181.8632	-2.2855
230.1793	33.9011
201.6057	33.6440
258.1316	30.5151
214.8115	210.8622
251.2161	-9.1946
202.0038	21.0406
200.7351	10.9711
183.1154	37.0060
225.1936	22.8148
254.9985	30.7806
183.6115	13.1041
224.7874	33.2846
238.0764	-1.4690
193.9654	-6.6063
222.6562	23.0543
199.7586	28.0903
182.0973	29.7561
252.1937	-1.2981
205.2544	38.7613
208.1475	28.0988
201.3486	13.5696
207.3895	14.7418
207.4143	14.9544
184.3036	-3.5663
213.6716	93.8153
202.2392	35.2067
233.3943	-30.8194
203.1146	59.4294
188.7994	27.9367
183.0930	-14.6955
251.9201	-3.6533
214.2116	47.5418
206.1383	42.8586
213.6487	62.3312
184.1383	-14.4604
204.7309	43.5854
189.3623	-1.0634
260.8483	23.2741
246.7944	23.2945
187.2365	24.2137
191.7242	-1.5134
208.6037	23.2316
239.3627	-8.1996
183.2704	-9.0880
190.4858	-22.0949
190.4565	-8.1706
249.8445	26.7991
229.8610	11.2179
200.0431	-18.8921
192.4363	-16.9491
185.3879	-0.2779
245.2132	-32.4436
206.7986	13.5005
192.2716	1.9247
178.6172	19.5184
203.0877	26.8747
206.7621	26.2057
248.9908	44.4689
190.1076	-11.2835
186.6765	-16.4857
192.1889	-15.9290
245.4459	2.7853
244.6737	17.0893
186.6842	-12.7577
217.6679	-3.3630
195.6877	-43.5025
185.8177	-16.0448
209.3577	6.3527
238.5463	-13.0208
213.5944	36.6698
178.1786	-6.7569
256.8116	-31.6227
247.4147	37.7137
193.8108	-22.8151
178.9473	7.2185
190.7973	-19.8684
259.6569	4.8163
235.1358	-10.7215
178.8588	18.1276
194.3038	-33.9788
258.5788	-7.9901
186.1056	-23.4829
231.9133	2.0555
190.9071	-72.2677
223.9466	8.7788
231.5519	-1.7601
260.7424	-10.6940
229.1751	21.2006
179.3919	7.3615
264.9785	85.3777
262.5792	26.2379
223.5644	-1.7157
235.2976	-25.3400
246.2631	18.6816
255.7060	15.7129
191.1494	-53.4442
177.4700	-4.3998
191.3325	-82.2037
180.3484	1.2783
178.4168	-13.8419
185.9555	-22.9594
192.7186	-28.5011
184.5474	-28.5851
185.7498	-44.2595
191.5504	-34.8421
190.5300	-36.8278
250.7605	33.4854
187.9647	-12.0042
176.2707	68.6108
178.3274	0.3321
189.3885	-77.9169
182.7133	-10.8449
250.3233	40.1829
178.0239	24.4523
189.6881	38.1323
232.7749	-43.1286
179.6453	-5.3301
261.9186	-10.4664
250.1774	29.0760
174.9550	-1.1435
180.8004	25.3697
246.5667	-4.2006
231.2158	-3.4491
244.9360	-21.0606
181.5521	-11.0818
174.6984	-9.4043
178.7637	12.2342
269.9759	21.0669
177.4812	-19.4116
176.0265	8.2081
175.6446	20.0790
174.7370	-26.2036
232.8780	-43.1925
187.3862	-172.3305
238.6380	-44.3456
259.5585	-18.3192
176.9948	-19.2640
176.9815	0.2753
258.3425	5.7451
178.0909	30.7702
257.1454	-15.3488
186.9737	31.3844
257.1962	-15.3271
175.8649	-16.1977
239.6682	-37.6983
245.4455	2.5510
237.1974	-9.9098
237.5872	-28.7740
246.7212	-20.2058
257.9798	-15.2864
183.2039	-2.9567
186.8180	-1.0086
254.7803	0.0888
182.6799	-10.2595
175.5674	-7.6501
258.2033	-53.8793
184.3653	-2.9751
251.8100	2.2900
172.7891	-7.8395
181.7669	-8.5803
181.7704	10.4329
184.8521	0.3400
271.5143	79.6534
259.8342	9.8633
181.8594	-22.4520
266.9799	-1.1182
177.9067	1.3253
172.8139	19.3993
182.4561	-21.6570
183.3568	0.4320
252.2708	-33.4289
176.8571	-5.7235
172.9518	-7.3524
249.2754	-15.6305
181.1837	5.8509
175.9215	-32.6649
176.8320	-1.9356
176.8437	-4.8907
174.2552	-16.3450
257.2375	-9.1124
174.5512	-18.0771
253.5494	-6.7034
178.6850	23.0106
174.3256	-21.8748
258.4822	24.3152
172.8716	3.9313
173.4845	0.0301
178.3194	6.0811
266.2006	-0.5217
251.3737	-2.1452
174.0480	3.1546
247.7688	1.2109
177.2110	-2.3680
174.9019	0.5622
179.0978	-1.8264
263.3054	-20.7805
178.7398	22.3719
178.7216	19.7836
172.8805	-36.2237
172.3185	-58.9478
274.9358	-2.8425
173.0924	1.6025
177.6841	0.7688
171.6253	-10.6770
171.4726	5.9245
259.7182	0.6140
178.0826	21.8895
274.9337	11.6330
170.3223	0.3113
170.2907	10.7719
262.9799	-38.9499
263.0461	-44.2616
263.6155	-40.3131
176.8019	38.8375
175.5826	22.0414
168.6618	15.6079
279.4801	22.6259
175.2131	45.0909
270.7587	4.2546
169.2343	50.0029
171.5695	-14.1689
170.6536	-5.6794
171.5884	22.1545
173.0245	-15.3908
170.0169	-12.0395
172.7251	12.8851
271.0516	21.6572
173.2361	10.3870
170.1119	-12.9726
167.9207	0.0643
173.6582	2.7759
264.0900	11.1888
174.9004	13.6040
173.7887	19.9999
176.1858	-24.7653
263.2700	36.8465
169.3340	-8.6840
172.1755	8.7438
173.9987	-3.9296
173.2585	13.8191
278.1938	-15.8195
173.7283	-5.4514
169.5738	36.2608
168.3532	-13.3963
170.9732	14.1543
171.0364	7.5528
172.0934	0.2265
173.3867	1.9488
166.9885	-35.2928
168.4958	20.8782
171.6334	17.5038
274.5560	-49.1616
173.6435	21.2281
170.4006	64.8392
278.4585	-9.8535
166.1741	-4.7513
173.1332	-18.4108
166.6204	1.2585
272.4034	9.2958
164.3665	27.1691
167.9809	53.9855
167.9996	36.7307
164.3517	40.2061
165.4088	46.1753
169.5000	21.4761
170.9359	-21.6551
165.0621	1.9787
277.2676	-18.4078
163.7031	24.2042
275.4786	-9.8549
275.5592	0.4862
286.5952	38.3355
283.7342	57.1545
166.7029	70.8861
167.3924	-11.9671
165.8688	34.4020
285.1704	28.9876
164.7959	-23.5345
162.8126	14.8476
163.2668	-0.2546
165.3420	90.0837
168.9140	7.3513
167.8873	-2.6443
166.0240	10.7284
167.9841	8.7410
287.1795	-0.7242
162.6142	13.3124
285.3564	-6.0363
167.1452	-494.7768
168.4978	-8.8301
163.5199	10.3233
163.4865	8.5746
166.2490	4.2484
162.9355	3.7589
161.6509	-0.8766
168.2401	-1.5486
163.5414	-42.2811
166.2626	5.1407
167.2027	0.5417
165.2052	7.7453
162.9219	12.1426
161.9371	6.7469
164.8364	-1.0972
163.7191	65.6103
285.3380	0.2410
163.6916	63.8786
165.5338	-6.6239
